Smoothed ATR airfoil coordinates obtained  using AFSMO (Harry Morgan's NASA smoothing program)
  1.0 0.0
  0.9961902 0.0005835346
  0.9915706 0.001299654
  0.9866917 0.002066188
  0.9815386 0.002887174
  0.9761025 0.003765959
  0.9703839 0.004704489
  0.9643979 0.00570243
  0.958175 0.006757313
  0.9517523 0.007865869
  0.9451644 0.009025068
  0.9384361 0.01023345
  0.931578 0.01149035
  0.9245968 0.01279331
  0.9175017 0.0141389
  0.9103045 0.01552275
  0.9030194 0.01694002
  0.8956607 0.01838578
  0.8882416 0.01985507
  0.8807736 0.021343
  0.8732668 0.02284436
  0.8657311 0.02435347
  0.8581765 0.0258645
  0.8506132 0.02737206
  0.8430504 0.02887241
  0.8354955 0.03036249
  0.8279538 0.03183968
  0.8204284 0.03330153
  0.8129191 0.03474566
  0.8054224 0.03617029
  0.7979314 0.03757474
  0.7904392 0.03896042
  0.7829405 0.04032899
  0.7754325 0.04168164
  0.7679141 0.04301921
  0.760385 0.04434239
  0.7528443 0.04565199
  0.7452905 0.04694895
  0.7377223 0.0482345
  0.7301395 0.04950979
  0.7225436 0.05077576
  0.7149376 0.05203291
  0.7073249 0.05328111
  0.6997086 0.05452013
  0.6920914 0.05574982
  0.6844762 0.05696961
  0.6768663 0.05817843
  0.6692662 0.05937506
  0.6616806 0.06055763
  0.6541108 0.06172307
  0.6465519 0.062869
  0.6389939 0.06399535
  0.6314279 0.06510454
  0.6238477 0.06619865
  0.6162502 0.06727938
  0.6086343 0.06834834
  0.6009994 0.06940717
  0.5933457 0.07045744
  0.5856738 0.07150074
  0.5779858 0.07253859
  0.570285 0.07357234
  0.5625772 0.07460286
  0.5548724 0.07563025
  0.5471844 0.07665283
  0.5395241 0.07766593
  0.5318945 0.07866548
  0.5242936 0.07964907
  0.5167213 0.08061531
  0.5091817 0.08156196
  0.5016781 0.08248556
  0.4942091 0.08338303
  0.4867688 0.0842519
  0.4793472 0.08509106
  0.4719343 0.0859015
  0.464522 0.08668419
  0.4571037 0.08743983
  0.4496749 0.08816914
  0.4422315 0.08887364
  0.4347695 0.08955491
  0.4272847 0.09021457
  0.4197737 0.0908547
  0.412235 0.09147781
  0.4046706 0.09208618
  0.3970852 0.0926816
  0.3894847 0.09326452
  0.3818741 0.09383525
  0.3742577 0.09439405
  0.3666393 0.0949406
  0.3590233 0.09547433
  0.3514152 0.09599465
  0.3438206 0.09650096
  0.3362462 0.09699265
  0.3286989 0.0974685
  0.3211855 0.097926
  0.3137121 0.09836265
  0.3062845 0.09877613
  0.2989078 0.09916425
  0.2915864 0.09952503
  0.2843245 0.09985583
  0.2771262 0.1001534
  0.2699953 0.1004145
  0.2629361 0.1006366
  0.2559522 0.100817
  0.2490474 0.1009535
  0.2422251 0.1010429
  0.2354882 0.1010818
  0.228838 0.1010672
  0.2222752 0.1009964
  0.2157997 0.100867
  0.2094106 0.1006771
  0.203107 0.1004245
  0.1968879 0.1001071
  0.1907526 0.0997231
  0.1847003 0.09927091
  0.1787307 0.09874918
  0.1728434 0.09815668
  0.1670375 0.09749236
  0.1613122 0.09675525
  0.155666 0.09594449
  0.1500982 0.09505963
  0.1446086 0.09410075
  0.1391982 0.09306819
  0.1338681 0.09196254
  0.1286202 0.09078465
  0.1234568 0.08953583
  0.1183801 0.08821775
  0.1133922 0.08683228
  0.1084952 0.08538141
  0.1036907 0.08386728
  0.09898147 0.08229262
  0.09437271 0.08066121
  0.0898711 0.07897793
  0.08548428 0.0772486
  0.08122008 0.07547987
  0.07708575 0.07367851
  0.07308607 0.07185022
  0.06922255 0.06999969
  0.06549422 0.06813076
  0.06189822 0.06624645
  0.05843055 0.06434916
  0.05508895 0.06244146
  0.05187451 0.06052759
  0.04879008 0.05861329
  0.04583897 0.05670523
  0.04302391 0.0548104
  0.04034648 0.05293561
  0.03780665 0.05108707
  0.03540274 0.0492701
  0.03313151 0.04748901
  0.03098805 0.04574654
  0.02896519 0.04404302
  0.02705426 0.04237715
  0.02524621 0.04074661
  0.02353287 0.03914882
  0.02190849 0.03758198
  0.02036867 0.03604521
  0.01890966 0.03453823
  0.01752814 0.03306106
  0.01622095 0.03161391
  0.01498504 0.03019698
  0.01381733 0.02881045
  0.01271477 0.02745438
  0.01167429 0.02612871
  0.01069282 0.02483324
  0.009767321 0.02356764
  0.008894824 0.02233145
  0.008073005 0.02112378
  0.00730008 0.01994318
  0.006574056 0.01878796
  0.005892826 0.01765635
  0.005254269 0.01654658
  0.004656317 0.01545691
  0.004097039 0.0143857
  0.003575293 0.01333163
  0.003090559 0.01229389
  0.002642378 0.01127205
  0.002230277 0.01026591
  0.00185373 0.009275457
  0.001512131 0.008300787
  0.001204774 0.007342067
  0.0009308555 0.006399486
  0.0006899022 0.005473336
  0.0004831029 0.004563982
  0.0003116654 0.003670954
  0.000176473 0.002792994
  7.831842e-05 0.001928294
  1.809167e-05 0.00107464
  -3.058292e-06 0.0002294842
  1.630221e-05 -0.0006099996
  7.612956e-05 -0.001446243
  0.000175391 -0.002280975
  0.0003135884 -0.003115586
  0.0004907218 -0.003951191
  0.0007072352 -0.004788649
  0.0009639815 -0.005628566
  0.0012622 -0.006471277
  0.001603498 -0.007316801
  0.001989832 -0.008164777
  0.00242348 -0.009014366
  0.002906988 -0.00986412
  0.003443074 -0.01071181
  0.004034479 -0.01155419
  0.004683707 -0.01238679
  0.005392418 -0.01320556
  0.006161181 -0.01400923
  0.006990087 -0.01479708
  0.007878803 -0.01556869
  0.008826597 -0.01632403
  0.009832383 -0.01706353
  0.01089481 -0.01778818
  0.01201236 -0.01849965
  0.01318354 -0.01920043
  0.0144081 -0.01989371
  0.01569024 -0.02058218
  0.01703519 -0.02126825
  0.0184478 -0.02195327
  0.01993307 -0.02263684
  0.0214964 -0.02331834
  0.02314359 -0.02399706
  0.02488087 -0.02467223
  0.02671484 -0.02534299
  0.02865246 -0.02600843
  0.03070098 -0.0266676
  0.03286783 -0.02731956
  0.03516051 -0.02796342
  0.03758642 -0.02859847
  0.04015268 -0.02922431
  0.04286593 -0.02984101
  0.04573232 -0.03044941
  0.04875746 -0.03105143
  0.05194684 -0.03165051
  0.05530798 -0.03225
  0.05885254 -0.03284908
  0.06259252 -0.03344599
  0.06653921 -0.03403867
  0.07070255 -0.03462478
  0.07509058 -0.03520182
  0.07970898 -0.03576727
  0.08456103 -0.03631884
  0.08964819 -0.03685477
  0.09497156 -0.03737411
  0.1005309 -0.03787551
  0.1063216 -0.03835719
  0.1123351 -0.03881783
  0.1185583 -0.03925682
  0.1249753 -0.03967443
  0.1315689 -0.04007199
  0.1383226 -0.04045085
  0.1452214 -0.04081092
  0.1522499 -0.04115239
  0.1593933 -0.04147593
  0.1666377 -0.04178241
  0.1739699 -0.04207263
  0.1813777 -0.04234766
  0.188851 -0.04260881
  0.1963805 -0.04285727
  0.2039572 -0.04309424
  0.2115712 -0.04332107
  0.2192127 -0.0435391
  0.2268722 -0.04374865
  0.2345411 -0.04394903
  0.2422126 -0.04413965
  0.2498814 -0.04431993
  0.2575435 -0.04448903
  0.2651962 -0.04464581
  0.2728371 -0.04478915
  0.2804645 -0.04491791
  0.2880771 -0.04503095
  0.2956736 -0.04512715
  0.3032532 -0.04520526
  0.3108167 -0.04526394
  0.3183662 -0.04530188
  0.3259053 -0.04531782
  0.3334389 -0.04531124
  0.3409716 -0.04528207
  0.3485077 -0.04523023
  0.3560513 -0.04515601
  0.3636062 -0.04506033
  0.3711754 -0.04494415
  0.3787614 -0.04480843
  0.3863663 -0.04465431
  0.393991 -0.04448318
  0.4016355 -0.04429652
  0.4092989 -0.04409584
  0.4169791 -0.04388235
  0.4246743 -0.04365702
  0.4323822 -0.04342082
  0.4401011 -0.0431747
  0.4478283 -0.04291932
  0.4555604 -0.04265527
  0.4632925 -0.04238316
  0.4710189 -0.0421028
  0.4787361 -0.04181295
  0.4864438 -0.04151218
  0.4941442 -0.0411992
  0.5018409 -0.04087369
  0.5095361 -0.0405357
  0.5172312 -0.04018535
  0.524926 -0.03982308
  0.5326199 -0.03944949
  0.5403116 -0.03906509
  0.5479987 -0.03867
  0.5556783 -0.03826429
  0.5633472 -0.03784721
  0.5710039 -0.03741707
  0.5786492 -0.03697213
  0.5862862 -0.03651122
  0.5939201 -0.0360333
  0.6015583 -0.03553728
  0.6092082 -0.03502365
  0.6168747 -0.03449398
  0.6245584 -0.03395007
  0.6322569 -0.03339368
  0.6399675 -0.03282542
  0.6476908 -0.03224546
  0.6554308 -0.03165381
  0.6631931 -0.0310516
  0.67098 -0.0304409
  0.6787896 -0.02982419
  0.6866158 -0.02920428
  0.6944495 -0.02858352
  0.7022834 -0.02796353
  0.7101131 -0.0273457
  0.7179374 -0.02673111
  0.7257566 -0.02611932
  0.7335702 -0.02550865
  0.7413753 -0.02489751
  0.7491675 -0.02428452
  0.756941 -0.02366845
  0.7646912 -0.02304811
  0.7724147 -0.02242223
  0.7801089 -0.02178907
  0.7877735 -0.02114625
  0.7954102 -0.02049127
  0.8030226 -0.01982167
  0.8106155 -0.01913612
  0.818194 -0.01843355
  0.8257628 -0.0177129
  0.8333267 -0.01697332
  0.8408899 -0.01621516
  0.8484547 -0.01543929
  0.8560212 -0.01464673
  0.8635883 -0.01383876
  0.8711532 -0.01301687
  0.8787128 -0.01218269
  0.8862633 -0.0113379
  0.8937994 -0.01048503
  0.9013112 -0.009628671
  0.9087813 -0.008774499
  0.9161857 -0.007928834
  0.9234956 -0.007098424
  0.9306823 -0.006289975
  0.9377213 -0.005509324
  0.9445929 -0.0047612
  0.951282 -0.004049617
  0.9577731 -0.003380835
  0.9640448 -0.00276167
  0.9700742 -0.002197424
  0.9758416 -0.001691383
  0.9813333 -0.001244617
  0.9865442 -0.0008545494
  0.9914791 -0.0005156087
  0.9961501 -0.0002220513
  1.0 0.0
