 NASA/LANGLEY RC-08(N)1 AIRFOIL
  1.0 0.00064
  0.9969219 0.0007756319
  0.9930435 0.0009530814
  0.9887536 0.001157874
  0.9839949 0.001395518
  0.9787356 0.001670965
  0.973014 0.001985903
  0.9669871 0.002334308
  0.9609547 0.002698692
  0.9548994 0.003078644
  0.948848 0.003470993
  0.9428527 0.003871004
  0.9368696 0.004281198
  0.9308706 0.004703419
  0.9248456 0.005138409
  0.9188018 0.005585726
  0.9127528 0.006044501
  0.9067081 0.006514139
  0.9006717 0.006994419
  0.8946421 0.007485504
  0.8886154 0.007987633
  0.8825886 0.008500939
  0.8765603 0.009025455
  0.8705301 0.009561101
  0.8644989 0.01010768
  0.8584677 0.01066496
  0.8524376 0.01123267
  0.8464098 0.01181059
  0.8403853 0.01239885
  0.8343648 0.01299794
  0.8283481 0.01360841
  0.8223344 0.01423085
  0.8163223 0.01486564
  0.8103109 0.01551278
  0.8043 0.0161722
  0.7982902 0.01684374
  0.7922824 0.01752725
  0.7862769 0.0182227
  0.7802729 0.01893021
  0.7742683 0.01965003
  0.7682604 0.02038204
  0.7622468 0.02112516
  0.7562265 0.02187804
  0.7502 0.02263909
  0.7441696 0.02340686
  0.7381373 0.02418061
  0.7321045 0.02495985
  0.7260718 0.02574421
  0.7200388 0.02653314
  0.7140045 0.02732491
  0.7079691 0.02811741
  0.7019331 0.02890841
  0.6958978 0.02969577
  0.6898648 0.03047818
  0.683835 0.03125472
  0.6778086 0.03202462
  0.6717849 0.03278719
  0.6657631 0.03354199
  0.6597426 0.03428863
  0.6537231 0.0350267
  0.6477047 0.03575569
  0.6416879 0.03647507
  0.6356728 0.0371843
  0.6296591 0.03788288
  0.6236461 0.03857038
  0.6176329 0.03924655
  0.611619 0.03991132
  0.6056043 0.04056458
  0.5995893 0.04120616
  0.5935748 0.04183574
  0.5875616 0.04245283
  0.5815495 0.043057
  0.5755377 0.04364787
  0.5695249 0.04422529
  0.56351 0.04478955
  0.5574922 0.045341
  0.5514719 0.04587989
  0.5454497 0.04640636
  0.5394269 0.04692012
  0.5334044 0.04742078
  0.527383 0.04790797
  0.5213635 0.04838133
  0.5153462 0.04884037
  0.5093309 0.04928454
  0.5033169 0.04971337
  0.4973028 0.05012643
  0.4912872 0.05052363
  0.4852696 0.05090511
  0.4792506 0.05127092
  0.4732318 0.05162105
  0.4672157 0.05195506
  0.4612034 0.05227209
  0.4551945 0.05257136
  0.449187 0.05285217
  0.4431774 0.0531144
  0.4371632 0.05335882
  0.4311437 0.05358622
  0.4251204 0.05379734
  0.4190962 0.05399254
  0.4130742 0.05417129
  0.4070554 0.05433298
  0.4010389 0.05447704
  0.3950221 0.05460312
  0.389002 0.05471181
  0.3829772 0.05480394
  0.3769477 0.05488029
  0.3709152 0.05494157
  0.3648822 0.05498779
  0.3588506 0.05501863
  0.3528212 0.05503379
  0.3467941 0.05503298
  0.340769 0.05501604
  0.3347451 0.05498291
  0.328722 0.0549335
  0.3226994 0.05486774
  0.3166771 0.05478554
  0.3106547 0.05468683
  0.3046324 0.05457152
  0.2986101 0.05443953
  0.292588 0.05429071
  0.2865664 0.05412477
  0.2805457 0.05394142
  0.2745263 0.05374036
  0.2685089 0.05352132
  0.2624941 0.05328403
  0.2564828 0.05302824
  0.2504758 0.0527537
  0.2444743 0.05246012
  0.2384789 0.05214671
  0.2324899 0.05181253
  0.2265068 0.05145659
  0.2205284 0.05107791
  0.2145533 0.05067597
  0.2085806 0.05025061
  0.2026099 0.04980167
  0.1966418 0.04932906
  0.190677 0.04883247
  0.1847168 0.04831134
  0.1787626 0.04776512
  0.1728158 0.0471933
  0.166878 0.04659534
  0.1609497 0.04597042
  0.1550297 0.04531756
  0.1491151 0.04463554
  0.1432015 0.04392319
  0.1372854 0.04318064
  0.1313667 0.04240882
  0.1254491 0.04160919
  0.1195404 0.04078348
  0.1136503 0.03993042
  0.1077868 0.03904668
  0.1019549 0.03812865
  0.09615659 0.03717251
  0.09039182 0.03617448
  0.08465948 0.03513101
  0.07895761 0.03403839
  0.07328349 0.03289273
  0.06763464 0.031689
  0.06201693 0.03042
  0.05645018 0.02908145
  0.05096677 0.0276738
  0.04560787 0.02620233
  0.04041721 0.02467001
  0.0354224 0.02307235
  0.03062969 0.02140249
  0.02603117 0.01965159
  0.02161133 0.01780848
  0.01741968 0.01587076
  0.01370678 0.01393317
  0.01066677 0.01213909
  0.008262192 0.01054958
  0.006366591 0.009141665
  0.004869318 0.007883694
  0.003674132 0.006747632
  0.002707963 0.00570889
  0.001928457 0.00474377
  0.001308384 0.003839951
  0.0008212818 0.002991807
  0.0004474223 0.002197601
  0.0001862599 0.001461013
  3.550997e-05 0.0007761094
  -5.751062e-06 0.0001331909
  6.534323e-05 -0.000477939
  0.0002420527 -0.001068591
  0.0005180562 -0.001647707
  0.0008937689 -0.002221668
  0.001375404 -0.002795125
  0.001975114 -0.003370854
  0.002711269 -0.003948089
  0.003605687 -0.004517074
  0.004665502 -0.005044686
  0.00587681 -0.005483945
  0.007247116 -0.00582323
  0.008810768 -0.00607307
  0.01061094 -0.006243979
  0.01269963 -0.006368478
  0.01513159 -0.006531257
  0.01794658 -0.006882893
  0.02117225 -0.007466501
  0.0247902 -0.008203155
  0.02876198 -0.008907859
  0.03308915 -0.009454497
  0.03776474 -0.00984698
  0.04275734 -0.01011806
  0.04801375 -0.01032851
  0.05347018 -0.01056611
  0.05907407 -0.01089296
  0.06479118 -0.01129145
  0.07059362 -0.01173053
  0.07646288 -0.01217595
  0.08239123 -0.01259949
  0.08837181 -0.01300192
  0.09439434 -0.01339151
  0.1004455 -0.0137768
  0.1065094 -0.01416503
  0.1125721 -0.01455465
  0.1186262 -0.01494108
  0.1246705 -0.01532013
  0.1307099 -0.01568844
  0.136752 -0.01604612
  0.1428017 -0.01639479
  0.1488609 -0.01673591
  0.1549281 -0.0170707
  0.1609999 -0.01739959
  0.1670733 -0.01772259
  0.1731463 -0.01803976
  0.179218 -0.01835124
  0.1852885 -0.01865702
  0.1913582 -0.01895701
  0.197428 -0.01925112
  0.2034995 -0.01953931
  0.2095739 -0.01982189
  0.2156521 -0.02009948
  0.2217333 -0.02037266
  0.227816 -0.02064196
  0.2338976 -0.02090729
  0.2399763 -0.02116788
  0.2460511 -0.02142299
  0.2521224 -0.0216719
  0.2581912 -0.02191424
  0.2642587 -0.02215001
  0.2703258 -0.02237925
  0.2763933 -0.022602
  0.2824616 -0.02281825
  0.2885312 -0.02302802
  0.2946019 -0.0232313
  0.3006737 -0.02342809
  0.3067461 -0.02361831
  0.3128187 -0.02380184
  0.3188911 -0.0239785
  0.324963 -0.02414815
  0.3310341 -0.02431063
  0.3371044 -0.0244658
  0.3431737 -0.02461351
  0.3492419 -0.02475362
  0.3553092 -0.02488598
  0.3613757 -0.02501043
  0.3674414 -0.02512681
  0.3735066 -0.02523494
  0.3795715 -0.02533467
  0.3856362 -0.02542591
  0.3917008 -0.0255086
  0.3977651 -0.02558268
  0.4038286 -0.02564804
  0.4098908 -0.02570442
  0.4159514 -0.02575147
  0.4220102 -0.02578883
  0.4280671 -0.02581615
  0.4341222 -0.02583319
  0.4401759 -0.02583972
  0.446229 -0.02583556
  0.4522824 -0.0258205
  0.4583371 -0.02579462
  0.4643937 -0.02575823
  0.4704519 -0.02571167
  0.4765107 -0.02565527
  0.4825688 -0.02558913
  0.4886252 -0.02551302
  0.4946802 -0.02542671
  0.5007348 -0.02532993
  0.506791 -0.02522275
  0.5128504 -0.02510577
  0.5189134 -0.02497969
  0.5249796 -0.02484522
  0.5310474 -0.02470288
  0.5371154 -0.02455274
  0.5431827 -0.02439478
  0.5492493 -0.02422894
  0.5553155 -0.02405526
  0.5613824 -0.02387404
  0.5674509 -0.02368563
  0.5735222 -0.02349035
  0.5795976 -0.02328863
  0.5856781 -0.02308133
  0.5917636 -0.02286943
  0.5978534 -0.02265398
  0.6039458 -0.02243596
  0.6100387 -0.02221561
  0.6161309 -0.02199289
  0.622222 -0.02176769
  0.6283125 -0.02153998
  0.6344033 -0.02131051
  0.6404947 -0.02108042
  0.6465867 -0.02085092
  0.6526785 -0.02062317
  0.658769 -0.02039802
  0.6648572 -0.02017604
  0.6709426 -0.01995778
  0.6770248 -0.01974377
  0.6831039 -0.01953447
  0.6891807 -0.01933021
  0.6952564 -0.0191313
  0.7013331 -0.01893802
  0.7074133 -0.01875
  0.7134988 -0.01856605
  0.7195905 -0.01838499
  0.7256882 -0.01820563
  0.7317908 -0.01802712
  0.7378952 -0.0178492
  0.7439994 -0.01767161
  0.7501024 -0.01749405
  0.7561984 -0.01731583
  0.7622842 -0.01713493
  0.7683583 -0.01694913
  0.7744207 -0.0167562
  0.7804728 -0.01655404
  0.7865167 -0.0163412
  0.792554 -0.01611635
  0.7985858 -0.0158782
  0.8046128 -0.01562552
  0.8106355 -0.01535767
  0.8166549 -0.01507418
  0.8226719 -0.01477453
  0.8286882 -0.01445826
  0.8347053 -0.01412552
  0.8407244 -0.01377685
  0.8467464 -0.01341284
  0.8527715 -0.01303409
  0.8588 -0.01264139
  0.864832 -0.0122357
  0.8708684 -0.01181795
  0.8769102 -0.01138905
  0.8829588 -0.01095018
  0.8890154 -0.010503
  0.8950802 -0.01004925
  0.901153 -0.009590761
  0.9072324 -0.009128839
  0.9133157 -0.008663563
  0.9193978 -0.008194982
  0.9254721 -0.00772331
  0.9315306 -0.007248979
  0.937571 -0.006772404
  0.9436009 -0.006293261
  0.9496385 -0.005810376
  0.9557084 -0.005320242
  0.9617809 -0.004815194
  0.9678314 -0.004284821
  0.9736994 -0.003732692
  0.9792261 -0.00316893
  0.9843114 -0.002609832
  0.988937 -0.002067563
  0.9931344 -0.001547652
  0.9969534 -0.001051556
  1.0 -0.00064
