 NASA/LANGLEY RC-10(N)1 AIRFOIL
  1.0 0.000795
  0.9968276 0.001003148
  0.9928519 0.001269076
  0.9884851 0.001567679
  0.9836795 0.001904157
  0.9784108 0.002282556
  0.9727106 0.002703132
  0.9666935 0.003159585
  0.9605168 0.003641208
  0.9543109 0.004138127
  0.9481364 0.004645186
  0.9419843 0.00516289
  0.9358295 0.005693694
  0.929657 0.006239403
  0.9234626 0.006800951
  0.9172524 0.007377998
  0.9110347 0.007969186
  0.9048154 0.008573219
  0.8985978 0.009189027
  0.8923827 0.009816043
  0.8861698 0.0104544
  0.8799585 0.01110435
  0.8737481 0.01176617
  0.8675376 0.01244002
  0.8613265 0.01312577
  0.8551153 0.01382316
  0.8489053 0.01453182
  0.8426986 0.01525148
  0.8364966 0.01598236
  0.8302992 0.01672495
  0.824105 0.01747991
  0.8179108 0.01824776
  0.8117147 0.01902837
  0.8055166 0.01982124
  0.7993188 0.02062559
  0.7931252 0.02144079
  0.7869388 0.02226718
  0.7807592 0.02310563
  0.7745831 0.02395743
  0.7684044 0.02482346
  0.7622176 0.02570296
  0.7560194 0.0265946
  0.7498096 0.02749668
  0.7435904 0.02840745
  0.7373652 0.02932582
  0.7311377 0.03025074
  0.7249114 0.03118113
  0.7186896 0.03211519
  0.7124732 0.03304979
  0.7062598 0.03398206
  0.7000441 0.03490966
  0.6938182 0.03583201
  0.6875779 0.03675117
  0.6813254 0.03766866
  0.6750699 0.03858503
  0.6688257 0.03949844
  0.662604 0.0404038
  0.6564081 0.04129675
  0.6502336 0.04217414
  0.64407 0.0430349
  0.637907 0.04388055
  0.6317386 0.04471237
  0.6255629 0.04553102
  0.6193818 0.04633653
  0.6131983 0.04712843
  0.6070149 0.0479063
  0.6008327 0.04866988
  0.5946522 0.04941897
  0.5884732 0.0501532
  0.5822954 0.05087218
  0.5761184 0.05157553
  0.5699416 0.05226295
  0.5637645 0.05293431
  0.5575869 0.05358951
  0.5514089 0.05422842
  0.5452306 0.05485086
  0.5390524 0.05545653
  0.5328748 0.05604513
  0.5266982 0.05661633
  0.5205231 0.05716982
  0.5143497 0.05770513
  0.5081784 0.05822178
  0.502009 0.05871931
  0.4958415 0.05919729
  0.4896754 0.0596554
  0.4835106 0.06009336
  0.4773466 0.06051088
  0.471183 0.06090768
  0.4650196 0.06128354
  0.4588565 0.0616382
  0.4526944 0.0619714
  0.4465342 0.06228287
  0.4403767 0.06257225
  0.4342214 0.06283923
  0.4280665 0.06308352
  0.4219085 0.06330492
  0.4157439 0.06350406
  0.4095707 0.06368202
  0.4033898 0.06383983
  0.3972048 0.06397843
  0.3910202 0.06409784
  0.3848394 0.06419737
  0.3786628 0.06427637
  0.3724884 0.06433427
  0.3663126 0.06437111
  0.3601325 0.06438754
  0.3539472 0.06438421
  0.3477574 0.06436176
  0.3415652 0.0643204
  0.3353729 0.06425988
  0.3291822 0.06417992
  0.3229945 0.06408026
  0.3168107 0.06396064
  0.310631 0.06382081
  0.3044554 0.06366052
  0.2982835 0.06347948
  0.2921143 0.06327741
  0.2859471 0.06305402
  0.2797816 0.06280906
  0.273618 0.06254225
  0.2674566 0.06225336
  0.2612985 0.06194218
  0.255145 0.06160853
  0.2489977 0.06125229
  0.2428587 0.06087316
  0.2367294 0.06047028
  0.2306101 0.06004264
  0.2244998 0.05958914
  0.2183963 0.05910873
  0.2122977 0.05860093
  0.2062035 0.05806548
  0.2001145 0.05750227
  0.1940334 0.05691124
  0.1879627 0.05629181
  0.1819038 0.05564304
  0.1758565 0.05496385
  0.1698189 0.054253
  0.1637883 0.05350978
  0.1577634 0.05273393
  0.1517442 0.05192541
  0.1457322 0.05108434
  0.1397304 0.05021059
  0.1337418 0.04930353
  0.127769 0.04836255
  0.1218142 0.04738702
  0.1158798 0.04637599
  0.1099686 0.04532793
  0.1040844 0.0442415
  0.09823178 0.04311567
  0.09241635 0.04194926
  0.08664534 0.04073965
  0.08092734 0.03948436
  0.07527184 0.03818164
  0.06968905 0.03683034
  0.0641914 0.03542811
  0.05879471 0.03397273
  0.05351673 0.03246406
  0.04837568 0.03090403
  0.0433903 0.02929549
  0.03859438 0.02763989
  0.03404031 0.02594787
  0.02978013 0.02423939
  0.0258492 0.02253751
  0.02225925 0.02086283
  0.01901161 0.01922848
  0.01613096 0.01765025
  0.0136302 0.01615227
  0.01148669 0.01474986
  0.009654197 0.01344552
  0.008081308 0.01223303
  0.006728156 0.01109944
  0.005563172 0.01003135
  0.004558005 0.009018304
  0.003688444 0.008052084
  0.002934331 0.007126151
  0.002280742 0.006235349
  0.001721035 0.005376096
  0.001249585 0.004545904
  0.0008602512 0.003742846
  0.0005467098 0.002965292
  0.0003028254 0.002211854
  0.0001274059 0.001483836
  2.430179e-05 0.0007827476
  -2.974675e-06 0.0001061651
  4.908089e-05 -0.0005507703
  0.0001764818 -0.001194609
  0.0003748639 -0.001830806
  0.0006429785 -0.002463454
  0.0009821283 -0.003095689
  0.001395991 -0.00372981
  0.001890679 -0.004367126
  0.00247488 -0.005007396
  0.003159735 -0.005647513
  0.003957467 -0.006278672
  0.004876086 -0.006880935
  0.005915953 -0.007433772
  0.007081928 -0.007950391
  0.00838721 -0.00846205
  0.009858355 -0.008977345
  0.01153068 -0.009497554
  0.01344892 -0.01002536
  0.0156681 -0.01056643
  0.01825378 -0.01113076
  0.02129191 -0.01172332
  0.02486973 -0.01234582
  0.02904937 -0.01300474
  0.03386323 -0.01370379
  0.03924122 -0.01442301
  0.04497408 -0.0151337
  0.05083056 -0.01581764
  0.05670998 -0.0164786
  0.06263743 -0.01712627
  0.06864453 -0.01776543
  0.07474156 -0.01839835
  0.08091311 -0.01902472
  0.08712478 -0.01964156
  0.09334705 -0.02024597
  0.09956283 -0.02083651
  0.1057681 -0.02141301
  0.1119677 -0.02197587
  0.1181673 -0.02252528
  0.1243709 -0.02306128
  0.130581 -0.02358379
  0.1367988 -0.02409324
  0.1430238 -0.02459041
  0.149254 -0.02507595
  0.155486 -0.02555037
  0.1617163 -0.02601337
  0.1679438 -0.02646434
  0.1741702 -0.0269029
  0.1804 -0.02732894
  0.1866387 -0.02774361
  0.1928886 -0.02814855
  0.1991487 -0.02854517
  0.205414 -0.02893453
  0.2116784 -0.02931614
  0.2179382 -0.029689
  0.2241929 -0.03005228
  0.2304449 -0.03040544
  0.2366978 -0.03074877
  0.2429539 -0.03108277
  0.2492137 -0.03140786
  0.255476 -0.03172426
  0.2617388 -0.03203176
  0.2680005 -0.03232998
  0.27426 -0.03261857
  0.2805165 -0.03289721
  0.2867702 -0.03316563
  0.2930213 -0.03342356
  0.2992709 -0.03367074
  0.3055204 -0.033907
  0.3117711 -0.03413238
  0.318024 -0.03434699
  0.3242793 -0.0345509
  0.3305367 -0.03474415
  0.3367953 -0.0349268
  0.3430535 -0.03509887
  0.3493093 -0.03526038
  0.35556 -0.03541119
  0.3618038 -0.03555048
  0.3680407 -0.03567728
  0.3742728 -0.03579068
  0.380504 -0.03589003
  0.3867378 -0.03597567
  0.3929752 -0.03604813
  0.3992149 -0.03610791
  0.4054527 -0.03615523
  0.411685 -0.03618935
  0.4179104 -0.0362093
  0.4241301 -0.03621414
  0.430348 -0.0362032
  0.436568 -0.03617679
  0.4427918 -0.03613544
  0.4490194 -0.0360797
  0.4552482 -0.03600999
  0.4614758 -0.03592618
  0.4677012 -0.03582803
  0.4739251 -0.03571527
  0.4801498 -0.03558772
  0.4863775 -0.03544579
  0.4926093 -0.03529001
  0.4988445 -0.03512096
  0.5050811 -0.03493914
  0.5113172 -0.03474459
  0.5175522 -0.03453719
  0.523787 -0.0343168
  0.530024 -0.03408337
  0.5362656 -0.03383752
  0.5425132 -0.03358004
  0.5487668 -0.0333118
  0.5550255 -0.03303361
  0.5612877 -0.03274598
  0.5675524 -0.03244932
  0.5738189 -0.03214402
  0.5800872 -0.03183045
  0.5863575 -0.03150894
  0.5926304 -0.03117979
  0.5989067 -0.0308433
  0.6051875 -0.03049986
  0.611474 -0.03015029
  0.6177672 -0.02979552
  0.6240677 -0.02943648
  0.6303758 -0.02907411
  0.6366907 -0.02870923
  0.6430103 -0.02834277
  0.6493306 -0.02797574
  0.6556463 -0.02760938
  0.6619535 -0.02724532
  0.668251 -0.02688508
  0.6745407 -0.02652998
  0.6808269 -0.02618075
  0.687114 -0.02583697
  0.693404 -0.02549819
  0.6996971 -0.02516407
  0.7059919 -0.02483445
  0.7122868 -0.0245093
  0.7185821 -0.02418854
  0.7248795 -0.02387204
  0.731182 -0.02355923
  0.7374911 -0.02324884
  0.7438053 -0.02293965
  0.7501198 -0.02263056
  0.7564275 -0.02232033
  0.7627218 -0.02200708
  0.7689992 -0.02168874
  0.7752595 -0.02136314
  0.7815046 -0.02102826
  0.7877376 -0.02068257
  0.7939605 -0.02032469
  0.8001752 -0.01995321
  0.8063829 -0.01956697
  0.8125844 -0.01916528
  0.8187805 -0.01874752
  0.8249718 -0.01831309
  0.8311588 -0.01786151
  0.8373427 -0.01739266
  0.8435256 -0.01690641
  0.8497112 -0.01640248
  0.8559041 -0.01588081
  0.8621087 -0.01534273
  0.8683274 -0.01479009
  0.8745604 -0.01422496
  0.8808056 -0.01364948
  0.8870603 -0.01306526
  0.8933227 -0.01247362
  0.899592 -0.01187581
  0.9058686 -0.01127291
  0.9121523 -0.01066568
  0.91844 -0.01005507
  0.9247258 -0.0094423
  0.9310009 -0.00882869
  0.9372569 -0.008214687
  0.9434882 -0.007600231
  0.9496922 -0.006984978
  0.955867 -0.006366737
  0.9619845 -0.005737661
  0.9679695 -0.005093608
  0.9737173 -0.004436875
  0.9791275 -0.003775143
  0.9841407 -0.003121403
  0.9887502 -0.002485779
  0.9929808 -0.001873205
  0.9968705 -0.001285266
  1.0 -0.000795
