 NASA/LANGLEY RC-12(N)1 AIRFOIL
  1.0 0.00095
  0.996775 0.001230683
  0.9927564 0.001583393
  0.9883723 0.001971915
  0.9835812 0.002400967
  0.9783585 0.002873983
  0.97272 0.003390871
  0.9667444 0.003946367
  0.9605494 0.004532234
  0.9542455 0.005140684
  0.9478969 0.005767849
  0.9415125 0.006414253
  0.9350851 0.007080664
  0.9286146 0.007767001
  0.9221102 0.00847221
  0.9155873 0.009194707
  0.9090588 0.009933477
  0.9025302 0.01068824
  0.8959999 0.01145948
  0.8894616 0.0122473
  0.8829119 0.01305088
  0.8763515 0.01386881
  0.869786 0.01469926
  0.8632223 0.01554147
  0.8566647 0.01639558
  0.850113 0.01726226
  0.8435639 0.01814243
  0.8370133 0.01903626
  0.8304602 0.01994337
  0.8239066 0.02086292
  0.8173572 0.02179415
  0.8108157 0.0227373
  0.8042827 0.02369315
  0.7977554 0.02466295
  0.7912288 0.0256476
  0.7846988 0.02664709
  0.7781636 0.02766106
  0.7716235 0.02868884
  0.76508 0.02972975
  0.7585324 0.03078351
  0.7519778 0.03185023
  0.7454112 0.03293015
  0.7388269 0.03402226
  0.732222 0.03512468
  0.725597 0.03623492
  0.7189553 0.03735038
  0.7123033 0.03846921
  0.7056491 0.03958943
  0.6990026 0.04070876
  0.6923738 0.04182386
  0.6857689 0.04293077
  0.6791883 0.04402645
  0.6726273 0.04510887
  0.6660787 0.04617781
  0.6595372 0.04723362
  0.6530009 0.04827619
  0.6464707 0.04930484
  0.6399489 0.05031838
  0.6334365 0.05131567
  0.6269327 0.05229585
  0.6204351 0.05325838
  0.6139413 0.05420315
  0.6074505 0.05512997
  0.6009631 0.05603839
  0.594481 0.05692773
  0.5880056 0.05779704
  0.5815359 0.05864565
  0.5750689 0.05947313
  0.5685999 0.06027968
  0.5621254 0.06106621
  0.5556458 0.06183329
  0.5491647 0.0625811
  0.5426881 0.06330882
  0.5362207 0.06401472
  0.5297635 0.06469739
  0.5233143 0.06535582
  0.5168689 0.06598982
  0.5104239 0.06659972
  0.5039785 0.06718563
  0.497534 0.06774743
  0.4910929 0.06828451
  0.4846572 0.06879603
  0.4782273 0.06928126
  0.4718025 0.06973961
  0.4653812 0.07017079
  0.4589619 0.07057464
  0.4525433 0.07095097
  0.4461244 0.07129958
  0.4397043 0.07162049
  0.4332824 0.07191384
  0.426858 0.07217974
  0.4204307 0.07241829
  0.4139998 0.07262974
  0.407565 0.07281439
  0.4011258 0.07297251
  0.3946819 0.0731044
  0.388233 0.07321042
  0.3817794 0.07329096
  0.3753222 0.0733464
  0.3688626 0.07337703
  0.3624022 0.07338288
  0.3559417 0.0733639
  0.3494817 0.07332004
  0.343022 0.07325126
  0.3365626 0.07315753
  0.3301035 0.07303878
  0.323645 0.07289498
  0.3171876 0.07272609
  0.3107319 0.07253208
  0.3042789 0.07231296
  0.2978297 0.07206874
  0.2913855 0.07179923
  0.2849476 0.07150398
  0.2785171 0.0711825
  0.2720948 0.07083432
  0.2656814 0.07045898
  0.2592777 0.070056
  0.2528839 0.06962494
  0.2465003 0.06916532
  0.2401271 0.06867665
  0.2337643 0.06815838
  0.227412 0.06761001
  0.2210703 0.06703098
  0.2147395 0.06642075
  0.2084204 0.06577878
  0.202115 0.06510465
  0.1958258 0.06439806
  0.1895557 0.0636584
  0.1833061 0.06288457
  0.1770763 0.0620752
  0.1708636 0.06122867
  0.164664 0.06034377
  0.1584753 0.05942026
  0.1522983 0.05845832
  0.1461364 0.05745863
  0.1399957 0.0564216
  0.1338822 0.05534668
  0.1278006 0.05423319
  0.1217546 0.05308035
  0.1157466 0.05188739
  0.1097794 0.05065381
  0.1038563 0.04937937
  0.09798151 0.04806414
  0.09216011 0.04670806
  0.0864043 0.04531038
  0.08073697 0.04387309
  0.07518922 0.04240173
  0.06979616 0.04090484
  0.06458874 0.03939073
  0.05958104 0.03786383
  0.05477126 0.03632519
  0.05014766 0.03477329
  0.04569313 0.03320474
  0.04139798 0.03161421
  0.0372942 0.03000649
  0.03344479 0.02840455
  0.02990853 0.02683925
  0.02671556 0.02533758
  0.02386287 0.02391607
  0.02132322 0.02258001
  0.01906017 0.02132342
  0.01703553 0.02013321
  0.01521355 0.01899738
  0.01356345 0.01790577
  0.01205962 0.01684995
  0.01068136 0.0158231
  0.009411949 0.01481976
  0.008237824 0.01383549
  0.007149592 0.01286593
  0.006146023 0.01190714
  0.005229055 0.01095939
  0.004400153 0.01002582
  0.003658748 0.009110661
  0.003001805 0.008217937
  0.002424181 0.007350775
  0.001920706 0.006512135
  0.001487071 0.005703817
  0.001117582 0.004923849
  0.0008066691 0.004168396
  0.0005497168 0.00343296
  0.0003433201 0.002712845
  0.0001853523 0.002003258
  7.502033e-05 0.00129921
  1.30062e-05 0.0005952714
  1.79759e-06 -0.0001148571
  4.818415e-05 -0.0008359618
  0.0001606033 -0.001565981
  0.0003402467 -0.002303402
  0.0005876586 -0.003046749
  0.0009034414 -0.003794251
  0.001288231 -0.004543754
  0.001742658 -0.005292625
  0.002267297 -0.006037611
  0.002862579 -0.006774658
  0.003528673 -0.007498669
  0.004265302 -0.008203174
  0.005071465 -0.008879873
  0.005946409 -0.009521404
  0.006894687 -0.01013456
  0.007922712 -0.01073349
  0.009037878 -0.01132864
  0.01024955 -0.01192105
  0.01156845 -0.01251132
  0.01300674 -0.01310066
  0.01457808 -0.01369118
  0.01629764 -0.01428649
  0.01818274 -0.01489203
  0.02025916 -0.01551158
  0.0225608 -0.01614816
  0.02512711 -0.01680625
  0.02800338 -0.01749324
  0.0312394 -0.01821782
  0.03488075 -0.01898026
  0.03894849 -0.0197743
  0.04341999 -0.02058808
  0.04823053 -0.02140837
  0.05330512 -0.022228
  0.05860953 -0.02304991
  0.06414617 -0.02387554
  0.06991097 -0.024704
  0.07588448 -0.02553317
  0.08202737 -0.02635916
  0.08828678 -0.02717536
  0.09461592 -0.02797587
  0.1009837 -0.02875748
  0.1073786 -0.02951975
  0.1138012 -0.03026368
  0.1202514 -0.03099018
  0.1267254 -0.03169978
  0.1332166 -0.03239258
  0.1397177 -0.03306786
  0.146224 -0.03372506
  0.1527341 -0.03436392
  0.159249 -0.03498462
  0.1657706 -0.03558776
  0.1723002 -0.03617393
  0.1788383 -0.03674361
  0.1853847 -0.03729728
  0.1919388 -0.0378354
  0.1984991 -0.03835838
  0.2050637 -0.03886659
  0.2116306 -0.03936001
  0.2181989 -0.03983843
  0.2247688 -0.04030175
  0.2313416 -0.04075
  0.237919 -0.04118361
  0.2445014 -0.04160305
  0.2510884 -0.04200874
  0.2576783 -0.04240088
  0.2642692 -0.04277918
  0.2708595 -0.04314334
  0.2774482 -0.04349308
  0.2840344 -0.04382816
  0.2906179 -0.04414836
  0.2971985 -0.04445347
  0.3037767 -0.04474332
  0.3103531 -0.04501775
  0.3169282 -0.04527662
  0.323502 -0.04551977
  0.3300747 -0.04574703
  0.3366461 -0.04595824
  0.3432156 -0.04615321
  0.3497827 -0.04633176
  0.3563465 -0.04649368
  0.3629065 -0.04663866
  0.3694631 -0.04676635
  0.3760176 -0.04687646
  0.3825717 -0.04696883
  0.3891262 -0.04704358
  0.39568 -0.04710085
  0.40223 -0.04714077
  0.4087724 -0.04716284
  0.4153049 -0.04716597
  0.4218277 -0.04714908
  0.4283435 -0.04711114
  0.4348565 -0.04705187
  0.44137 -0.0469715
  0.4478858 -0.04687021
  0.4544048 -0.0467482
  0.4609268 -0.04660573
  0.4674511 -0.04644308
  0.4739768 -0.04626053
  0.4805026 -0.04605833
  0.4870279 -0.04583644
  0.4935536 -0.04559472
  0.5000824 -0.04533296
  0.5066179 -0.04505125
  0.5131634 -0.04475054
  0.5197203 -0.04443196
  0.526288 -0.0440967
  0.5328645 -0.04374574
  0.5394474 -0.04337966
  0.5460349 -0.04299903
  0.5526256 -0.04260436
  0.5592187 -0.04219598
  0.5658144 -0.04177396
  0.572414 -0.04133834
  0.5790197 -0.04088916
  0.5856342 -0.04042702
  0.5922593 -0.03995281
  0.598896 -0.03946748
  0.6055444 -0.03897205
  0.6122043 -0.03846762
  0.618876 -0.03795523
  0.6255597 -0.03743595
  0.632256 -0.03691101
  0.6389646 -0.03638197
  0.6456833 -0.03585058
  0.6524083 -0.03531869
  0.6591348 -0.03478767
  0.665858 -0.03425849
  0.6725736 -0.03373204
  0.6792778 -0.03320929
  0.6859688 -0.03269173
  0.6926474 -0.03218082
  0.6993179 -0.03167778
  0.7059866 -0.03118301
  0.7126598 -0.03069535
  0.7193413 -0.03021358
  0.7260328 -0.02973663
  0.7327336 -0.02926329
  0.7394414 -0.02879196
  0.7461525 -0.02832112
  0.7528619 -0.02784932
  0.7595637 -0.02737538
  0.7662511 -0.02689826
  0.7729172 -0.02641702
  0.7795546 -0.02593053
  0.7861583 -0.02543621
  0.7927289 -0.02493072
  0.7992721 -0.02441035
  0.8057985 -0.02387171
  0.8123188 -0.02331387
  0.8188389 -0.02273686
  0.8253596 -0.02214107
  0.8318775 -0.02152705
  0.8383895 -0.02089458
  0.8448971 -0.02024293
  0.8514061 -0.01957086
  0.8579262 -0.01887776
  0.8644666 -0.01816501
  0.8710326 -0.01743465
  0.8776256 -0.01668915
  0.8842432 -0.01593112
  0.8908816 -0.01516302
  0.8975358 -0.01438745
  0.9041999 -0.01360707
  0.9108673 -0.01282379
  0.9175305 -0.01203894
  0.9241818 -0.01125392
  0.9308128 -0.01047011
  0.9374096 -0.009689184
  0.9439472 -0.008914008
  0.9503907 -0.008148644
  0.9566975 -0.007394769
  0.9628122 -0.006645382
  0.9686718 -0.005895492
  0.9742206 -0.005143906
  0.9794218 -0.004392896
  0.9842651 -0.003650484
  0.9887638 -0.002923539
  0.9929436 -0.002215765
  0.9968349 -0.00152875
  1.0 -0.0009499
